 radius; CIS X,1; CIS A,0; JC LP; JC UP; PF LP; PF UP; CQED-CIS LP; CQED-CIS UP 
 1.300  -199.682882  -199.610421  -199.683228  -199.610074  -199.683025  -199.607740  -199.682951  -199.609823 
 1.400  -199.705389  -199.642382  -199.705813  -199.641958  -199.705602  -199.639609  -199.705521  -199.641678 
 1.500  -199.717834  -199.664496  -199.718370  -199.663960  -199.718152  -199.661583  -199.718061  -199.663645 
 1.600  -199.723209  -199.679393  -199.723901  -199.678701  -199.723672  -199.676050  -199.723570  -199.678345 
 1.700  -199.723568  -199.688880  -199.724474  -199.687973  -199.724236  -199.685468  -199.724116  -199.687569 
 1.800  -199.720364  -199.694230  -199.721552  -199.693042  -199.721304  -199.690522  -199.721162  -199.692585 
 1.900  -199.714654  -199.696380  -199.716177  -199.694857  -199.715931  -199.692353  -199.715751  -199.694341 
 2.000  -199.707222  -199.696050  -199.709060  -199.694212  -199.708858  -199.691719  -199.708593  -199.693684 
 2.100  -199.698656  -199.693806  -199.700525  -199.691937  -199.700539  -199.689224  -199.700023  -199.691327 
 2.200  -199.689397  -199.690108  -199.692858  -199.686647  -199.691046  -199.686194  -199.691959  -199.686300 
 2.300  -199.679781  -199.685326  -199.688887  -199.676221  -199.686968  -199.675980  -199.687991  -199.675724 
 2.400  -199.670056  -199.679765  -199.683545  -199.666277  -199.681809  -199.665980  -199.682553  -199.665712 
 2.500  -199.660408  -199.673670  -199.677580  -199.656498  -199.675986  -199.656204  -199.676468  -199.655874 
 2.600  -199.650972  -199.667235  -199.671276  -199.646931  -199.669812  -199.646654  -199.670029  -199.646250 
 2.700  -199.641846  -199.660617  -199.664814  -199.637649  -199.663493  -199.637397  -199.663420  -199.636911 
